Freq Z_mod Z_Fase Err Eri E_mod E_fase R X
+5.794984e+01 +2.090278e+02 -1.007443e+00 +2.310145e+05 +1.313702e+07 +1.313905e+07 -1.553213e+00 +2.089955e+02 -3.675187e+00
+6.069215e+01 +2.104167e+02 -1.028775e+00 +2.237596e+05 +1.246056e+07 +1.246257e+07 -1.552841e+00 +2.103827e+02 -3.777934e+00
+6.356424e+01 +2.104167e+02 -1.041380e+00 +2.162667e+05 +1.189749e+07 +1.189946e+07 -1.552621e+00 +2.103819e+02 -3.824219e+00
+6.657224e+01 +2.083333e+02 -1.050106e+00 +2.103074e+05 +1.147348e+07 +1.147541e+07 -1.552469e+00 +2.082983e+02 -3.818081e+00
+6.972259e+01 +2.055556e+02 -1.056894e+00 +2.048338e+05 +1.110308e+07 +1.110497e+07 -1.552350e+00 +2.055206e+02 -3.791520e+00
+7.302202e+01 +2.013889e+02 -1.063681e+00 +2.009068e+05 +1.082072e+07 +1.082258e+07 -1.552232e+00 +2.013542e+02 -3.738517e+00
+7.647758e+01 +1.972222e+02 -1.069499e+00 +1.969530e+05 +1.055005e+07 +1.055189e+07 -1.552130e+00 +1.971879e+02 -3.681191e+00
+8.009667e+01 +1.930556e+02 -1.075317e+00 +1.931575e+05 +1.029075e+07 +1.029256e+07 -1.552029e+00 +1.930216e+02 -3.623019e+00
+8.388702e+01 +1.881944e+02 -1.079195e+00 +1.898761e+05 +1.007956e+07 +1.008135e+07 -1.551961e+00 +1.881611e+02 -3.544529e+00
+8.785674e+01 +1.840278e+02 -1.083074e+00 +1.860678e+05 +9.842016e+06 +9.843774e+06 -1.551893e+00 +1.839949e+02 -3.478507e+00
+9.201432e+01 +1.798611e+02 -1.085983e+00 +1.822643e+05 +9.615003e+06 +9.616730e+06 -1.551842e+00 +1.798288e+02 -3.408878e+00
+9.636864e+01 +1.750000e+02 -1.090831e+00 +1.796614e+05 +9.435559e+06 +9.437269e+06 -1.551758e+00 +1.749683e+02 -3.331552e+00
+1.009290e+02 +1.708333e+02 -1.094709e+00 +1.763523e+05 +9.228948e+06 +9.230632e+06 -1.551690e+00 +1.708022e+02 -3.263791e+00
+1.057052e+02 +1.666667e+02 -1.098588e+00 +1.732050e+05 +9.032234e+06 +9.033894e+06 -1.551622e+00 +1.666360e+02 -3.195467e+00
+1.107074e+02 +1.625000e+02 -1.101497e+00 +1.700685e+05 +8.845244e+06 +8.846878e+06 -1.551572e+00 +1.624700e+02 -3.123828e+00
+1.159463e+02 +1.583333e+02 -1.104406e+00 +1.670974e+05 +8.667824e+06 +8.669434e+06 -1.551521e+00 +1.583039e+02 -3.051767e+00
+1.214332e+02 +1.541667e+02 -1.106345e+00 +1.641471e+05 +8.499851e+06 +8.501436e+06 -1.551487e+00 +1.541379e+02 -2.976675e+00
+1.271797e+02 +1.506944e+02 -1.109254e+00 +1.607631e+05 +8.302786e+06 +8.304342e+06 -1.551436e+00 +1.506662e+02 -2.917282e+00
+1.331981e+02 +1.465278e+02 -1.112163e+00 +1.582780e+05 +8.153055e+06 +8.154591e+06 -1.551385e+00 +1.465002e+02 -2.844057e+00
+1.395013e+02 +1.423611e+02 -1.115071e+00 +1.559564e+05 +8.012503e+06 +8.014021e+06 -1.551335e+00 +1.423342e+02 -2.770410e+00
+1.461028e+02 +1.388889e+02 -1.117980e+00 +1.530305e+05 +7.841720e+06 +7.843213e+06 -1.551284e+00 +1.388624e+02 -2.709889e+00
+1.530167e+02 +1.347222e+02 -1.120889e+00 +1.510269e+05 +7.718961e+06 +7.720438e+06 -1.551233e+00 +1.346964e+02 -2.635431e+00
+1.602578e+02 +1.312500e+02 -1.124768e+00 +1.485299e+05 +7.565155e+06 +7.566613e+06 -1.551165e+00 +1.312247e+02 -2.576390e+00
+1.678416e+02 +1.277778e+02 -1.128646e+00 +1.461747e+05 +7.419608e+06 +7.421047e+06 -1.551098e+00 +1.277530e+02 -2.516880e+00
+1.757842e+02 +1.243056e+02 -1.131555e+00 +1.438383e+05 +7.282240e+06 +7.283660e+06 -1.551047e+00 +1.242813e+02 -2.454796e+00
+1.841027e+02 +1.208333e+02 -1.134464e+00 +1.416488e+05 +7.152996e+06 +7.154399e+06 -1.550996e+00 +1.208096e+02 -2.392360e+00
+1.928149e+02 +1.173611e+02 -1.137373e+00 +1.396070e+05 +7.031853e+06 +7.033239e+06 -1.550945e+00 +1.173380e+02 -2.329571e+00
+2.019393e+02 +1.138889e+02 -1.141251e+00 +1.378313e+05 +6.918815e+06 +6.920188e+06 -1.550878e+00 +1.138663e+02 -2.268357e+00
+2.114955e+02 +1.111111e+02 -1.145130e+00 +1.353520e+05 +6.771341e+06 +6.772694e+06 -1.550810e+00 +1.110889e+02 -2.220551e+00
+2.215040e+02 +1.076389e+02 -1.149008e+00 +1.338569e+05 +6.673936e+06 +6.675279e+06 -1.550742e+00 +1.076172e+02 -2.158443e+00
+2.319860e+02 +1.048611e+02 -1.151917e+00 +1.315265e+05 +6.541179e+06 +6.542501e+06 -1.550692e+00 +1.048399e+02 -2.108064e+00
+2.429641e+02 +1.020833e+02 -1.155796e+00 +1.294351e+05 +6.415563e+06 +6.416868e+06 -1.550624e+00 +1.020626e+02 -2.059131e+00
+2.544617e+02 +9.930556e+01 -1.159674e+00 +1.274700e+05 +6.297021e+06 +6.298311e+06 -1.550556e+00 +9.928522e+01 -2.009821e+00
+2.665034e+02 +9.652778e+01 -1.164522e+00 +1.257362e+05 +6.185507e+06 +6.186785e+06 -1.550472e+00 +9.650784e+01 -1.961768e+00
+2.791150e+02 +9.375000e+01 -1.169371e+00 +1.241267e+05 +6.081004e+06 +6.082270e+06 -1.550387e+00 +9.373048e+01 -1.913245e+00
+2.923233e+02 +9.097222e+01 -1.175188e+00 +1.227446e+05 +5.983517e+06 +5.984776e+06 -1.550285e+00 +9.095309e+01 -1.865792e+00
+3.061567e+02 +8.888889e+01 -1.180036e+00 +1.204401e+05 +5.847049e+06 +5.848290e+06 -1.550201e+00 +8.887004e+01 -1.830584e+00
+3.206447e+02 +8.611111e+01 -1.184885e+00 +1.191954e+05 +5.762938e+06 +5.764171e+06 -1.550116e+00 +8.609270e+01 -1.780663e+00
+3.358183e+02 +8.402778e+01 -1.190702e+00 +1.172039e+05 +5.638960e+06 +5.640178e+06 -1.550015e+00 +8.400963e+01 -1.746112e+00
+3.517100e+02 +8.194444e+01 -1.197490e+00 +1.154073e+05 +5.521042e+06 +5.522248e+06 -1.549896e+00 +8.192655e+01 -1.712526e+00
+3.683537e+02 +7.916667e+01 -1.202338e+00 +1.145209e+05 +5.456537e+06 +5.457738e+06 -1.549812e+00 +7.914924e+01 -1.661171e+00
+3.857850e+02 +7.708333e+01 -1.208156e+00 +1.128450e+05 +5.350788e+06 +5.351977e+06 -1.549710e+00 +7.706620e+01 -1.625281e+00
+4.040412e+02 +7.500000e+01 -1.213973e+00 +1.112723e+05 +5.250923e+06 +5.252102e+06 -1.549608e+00 +7.498317e+01 -1.588969e+00
+4.231614e+02 +7.291667e+01 -1.220761e+00 +1.098911e+05 +5.156900e+06 +5.158071e+06 -1.549490e+00 +7.290012e+01 -1.553467e+00
+4.431863e+02 +7.083333e+01 -1.227548e+00 +1.086123e+05 +5.068698e+06 +5.069862e+06 -1.549372e+00 +7.081708e+01 -1.517471e+00
+4.641589e+02 +6.875000e+01 -1.234336e+00 +1.074380e+05 +4.986318e+06 +4.987475e+06 -1.549253e+00 +6.873405e+01 -1.480982e+00
+4.861239e+02 +6.666667e+01 -1.242093e+00 +1.064539e+05 +4.909784e+06 +4.910937e+06 -1.549118e+00 +6.665100e+01 -1.445127e+00
+5.091284e+02 +6.458333e+01 -1.248880e+00 +1.054960e+05 +4.839151e+06 +4.840301e+06 -1.548999e+00 +6.456799e+01 -1.407616e+00
+5.332215e+02 +6.250000e+01 -1.257607e+00 +1.048141e+05 +4.774500e+06 +4.775650e+06 -1.548847e+00 +6.248495e+01 -1.371726e+00
+5.584547e+02 +6.111111e+01 -1.266333e+00 +1.030628e+05 +4.662361e+06 +4.663500e+06 -1.548695e+00 +6.109619e+01 -1.350549e+00
+5.848820e+02 +5.902778e+01 -1.276030e+00 +1.026591e+05 +4.608798e+06 +4.609942e+06 -1.548525e+00 +5.901314e+01 -1.314494e+00
+6.125599e+02 +5.694444e+01 -1.284756e+00 +1.023015e+05 +4.561535e+06 +4.562682e+06 -1.548373e+00 +5.693013e+01 -1.276771e+00
+6.415476e+02 +5.555556e+01 -1.293483e+00 +1.008010e+05 +4.464297e+06 +4.465434e+06 -1.548221e+00 +5.554140e+01 -1.254090e+00
+6.719071e+02 +5.416667e+01 -1.302210e+00 +9.938015e+04 +4.371864e+06 +4.372993e+06 -1.548068e+00 +5.415268e+01 -1.230986e+00
+7.037033e+02 +5.208333e+01 -1.311906e+00 +9.942003e+04 +4.341281e+06 +4.342420e+06 -1.547899e+00 +5.206968e+01 -1.192452e+00
+7.370041e+02 +5.069444e+01 -1.321602e+00 +9.824930e+04 +4.258673e+06 +4.259807e+06 -1.547730e+00 +5.068096e+01 -1.169230e+00
+7.718807e+02 +4.930556e+01 -1.330329e+00 +9.708931e+04 +4.180777e+06 +4.181904e+06 -1.547578e+00 +4.929227e+01 -1.144704e+00
+8.084079e+02 +4.791667e+01 -1.339055e+00 +9.601507e+04 +4.107565e+06 +4.108687e+06 -1.547425e+00 +4.790358e+01 -1.119755e+00
+8.466635e+02 +4.652778e+01 -1.347782e+00 +9.502852e+04 +4.039027e+06 +4.040145e+06 -1.547273e+00 +4.651491e+01 -1.094383e+00
+8.867295e+02 +4.513889e+01 -1.354569e+00 +9.399750e+04 +3.975179e+06 +3.976290e+06 -1.547155e+00 +4.512627e+01 -1.067060e+00
+9.286915e+02 +4.375000e+01 -1.361357e+00 +9.306343e+04 +3.916048e+06 +3.917153e+06 -1.547036e+00 +4.373765e+01 -1.039409e+00
+9.726393e+02 +4.236111e+01 -1.368144e+00 +9.222931e+04 +3.861688e+06 +3.862789e+06 -1.546918e+00 +4.234903e+01 -1.011429e+00
+1.018667e+03 +4.097222e+01 -1.373962e+00 +9.143426e+04 +3.812182e+06 +3.813278e+06 -1.546816e+00 +4.096044e+01 -9.824263e-01
+1.066872e+03 +4.027778e+01 -1.377840e+00 +8.905876e+04 +3.702684e+06 +3.703754e+06 -1.546748e+00 +4.026613e+01 -9.685007e-01
+1.117359e+03 +3.888889e+01 -1.379780e+00 +8.819561e+04 +3.661642e+06 +3.662704e+06 -1.546715e+00 +3.887761e+01 -9.364200e-01
+1.170235e+03 +3.750000e+01 -1.382689e+00 +8.751356e+04 +3.625679e+06 +3.626735e+06 -1.546664e+00 +3.748908e+01 -9.048797e-01
+1.225613e+03 +3.611111e+01 -1.384628e+00 +8.689485e+04 +3.595001e+06 +3.596051e+06 -1.546630e+00 +3.610057e+01 -8.725876e-01
+1.283612e+03 +3.472222e+01 -1.385598e+00 +8.634775e+04 +3.569866e+06 +3.570910e+06 -1.546613e+00 +3.471207e+01 -8.396139e-01
+1.344355e+03 +3.402778e+01 -1.387537e+00 +8.424651e+04 +3.478125e+06 +3.479145e+06 -1.546579e+00 +3.401780e+01 -8.239730e-01
+1.407973e+03 +3.333333e+01 -1.388506e+00 +8.217311e+04 +3.390154e+06 +3.391150e+06 -1.546562e+00 +3.332355e+01 -8.077212e-01
+1.474602e+03 +3.263889e+01 -1.387537e+00 +8.007362e+04 +3.305847e+06 +3.306816e+06 -1.546579e+00 +3.262932e+01 -7.903415e-01
+1.544383e+03 +3.125000e+01 -1.386567e+00 +7.979781e+04 +3.296764e+06 +3.297730e+06 -1.546596e+00 +3.124085e+01 -7.561812e-01
+1.617467e+03 +2.986111e+01 -1.384628e+00 +7.962455e+04 +3.294215e+06 +3.295178e+06 -1.546630e+00 +2.985239e+01 -7.215628e-01
+1.694009e+03 +2.916667e+01 -1.382689e+00 +7.772796e+04 +3.220262e+06 +3.221200e+06 -1.546664e+00 +2.915817e+01 -7.037954e-01
+1.774173e+03 +2.847222e+01 -1.380749e+00 +7.591943e+04 +3.149754e+06 +3.150669e+06 -1.546698e+00 +2.846396e+01 -6.860749e-01
+1.858131e+03 +2.777778e+01 -1.376871e+00 +7.409265e+04 +3.082627e+06 +3.083517e+06 -1.546765e+00 +2.776976e+01 -6.674616e-01
+1.946062e+03 +2.708333e+01 -1.372992e+00 +7.235446e+04 +3.018816e+06 +3.019683e+06 -1.546833e+00 +2.707556e+01 -6.489422e-01
+2.038154e+03 +2.638889e+01 -1.367175e+00 +7.060285e+04 +2.958274e+06 +2.959117e+06 -1.546935e+00 +2.638138e+01 -6.296239e-01
+2.134604e+03 +2.500000e+01 -1.361357e+00 +7.085513e+04 +2.981537e+06 +2.982379e+06 -1.547036e+00 +2.499294e+01 -5.939481e-01
+2.235618e+03 +2.361111e+01 -1.355539e+00 +7.132717e+04 +3.014287e+06 +3.015131e+06 -1.547138e+00 +2.360450e+01 -5.585542e-01
+2.341412e+03 +2.291667e+01 -1.349721e+00 +6.986700e+04 +2.965311e+06 +2.966134e+06 -1.547239e+00 +2.291031e+01 -5.397998e-01
+2.452213e+03 +2.222222e+01 -1.343904e+00 +6.849834e+04 +2.919812e+06 +2.920616e+06 -1.547341e+00 +2.221611e+01 -5.211865e-01
+2.568257e+03 +2.152778e+01 -1.338086e+00 +6.722088e+04 +2.877822e+06 +2.878607e+06 -1.547442e+00 +2.152191e+01 -5.027141e-01
+2.689793e+03 +2.083333e+01 -1.331298e+00 +6.598667e+04 +2.839391e+06 +2.840158e+06 -1.547561e+00 +2.082771e+01 -4.840302e-01
+2.817080e+03 +2.013889e+01 -1.324511e+00 +6.484548e+04 +2.804590e+06 +2.805340e+06 -1.547679e+00 +2.013351e+01 -4.655108e-01
+2.950391e+03 +1.944444e+01 -1.317724e+00 +6.379821e+04 +2.773513e+06 +2.774247e+06 -1.547798e+00 +1.943930e+01 -4.471559e-01
+3.090010e+03 +1.875000e+01 -1.309967e+00 +6.279987e+04 +2.746284e+06 +2.747002e+06 -1.547933e+00 +1.874510e+01 -4.286482e-01
+3.236236e+03 +1.875000e+01 -1.303179e+00 +5.965169e+04 +2.622203e+06 +2.622882e+06 -1.548052e+00 +1.874515e+01 -4.264276e-01
+3.389382e+03 +1.805556e+01 -1.296392e+00 +5.883901e+04 +2.600026e+06 +2.600691e+06 -1.548170e+00 +1.805093e+01 -4.084957e-01
+3.549775e+03 +1.736111e+01 -1.288635e+00 +5.807810e+04 +2.581856e+06 +2.582509e+06 -1.548305e+00 +1.735672e+01 -3.904344e-01
+3.717758e+03 +1.666667e+01 -1.280878e+00 +5.741682e+04 +2.567921e+06 +2.568563e+06 -1.548441e+00 +1.666250e+01 -3.725612e-01
+3.893691e+03 +1.597222e+01 -1.273121e+00 +5.685970e+04 +2.558504e+06 +2.559136e+06 -1.548576e+00 +1.596828e+01 -3.548759e-01
+4.077949e+03 +1.527778e+01 -1.263424e+00 +5.632609e+04 +2.553951e+06 +2.554572e+06 -1.548745e+00 +1.527406e+01 -3.368617e-01
+4.270926e+03 +1.458333e+01 -1.253728e+00 +5.590972e+04 +2.554684e+06 +2.555296e+06 -1.548915e+00 +1.457984e+01 -3.190824e-01
+4.473036e+03 +1.388889e+01 -1.243062e+00 +5.557589e+04 +2.561227e+06 +2.561829e+06 -1.549101e+00 +1.388562e+01 -3.013032e-01
+4.684710e+03 +1.319444e+01 -1.234336e+00 +5.546555e+04 +2.574219e+06 +2.574817e+06 -1.549253e+00 +1.319138e+01 -2.842288e-01
+4.906401e+03 +1.250000e+01 -1.222700e+00 +5.537470e+04 +2.594467e+06 +2.595058e+06 -1.549456e+00 +1.249715e+01 -2.667315e-01
+5.138583e+03 +1.250000e+01 -1.211065e+00 +5.236958e+04 +2.477249e+06 +2.477803e+06 -1.549659e+00 +1.249721e+01 -2.641936e-01
+5.381752e+03 +1.250000e+01 -1.198459e+00 +4.948294e+04 +2.365328e+06 +2.365846e+06 -1.549879e+00 +1.249727e+01 -2.614442e-01
+5.636429e+03 +1.250000e+01 -1.186824e+00 +4.678845e+04 +2.258463e+06 +2.258947e+06 -1.550082e+00 +1.249732e+01 -2.589063e-01
+5.903157e+03 +1.180556e+01 -1.173249e+00 +4.676130e+04 +2.283275e+06 +2.283754e+06 -1.550319e+00 +1.180308e+01 -2.417262e-01
+6.182508e+03 +1.111111e+01 -1.160644e+00 +4.692936e+04 +2.316375e+06 +2.316850e+06 -1.550539e+00 +1.110883e+01 -2.250630e-01
+6.475078e+03 +1.041667e+01 -1.147069e+00 +4.723722e+04 +2.359171e+06 +2.359643e+06 -1.550776e+00 +1.041458e+01 -2.085291e-01
+6.781493e+03 +9.722222e+00 -1.134464e+00 +4.779352e+04 +2.413482e+06 +2.413956e+06 -1.550996e+00 +9.720317e+00 -1.924887e-01
+7.102408e+03 +9.027778e+00 -1.119920e+00 +4.851435e+04 +2.481708e+06 +2.482182e+06 -1.551250e+00 +9.026053e+00 -1.764483e-01
+7.438510e+03 +8.333333e+00 -1.106345e+00 +4.957427e+04 +2.567051e+06 +2.567529e+06 -1.551487e+00 +8.331780e+00 -1.609013e-01
+7.790517e+03 +7.638889e+00 -1.091800e+00 +5.095866e+04 +2.673898e+06 +2.674383e+06 -1.551741e+00 +7.637502e+00 -1.455541e-01
+8.159181e+03 +6.944444e+00 -1.077256e+00 +5.280885e+04 +2.808402e+06 +2.808898e+06 -1.551995e+00 +6.943217e+00 -1.305594e-01
+8.545292e+03 +6.250000e+00 -1.059803e+00 +5.511767e+04 +2.979469e+06 +2.979979e+06 -1.552299e+00 +6.248931e+00 -1.155999e-01
+8.949674e+03 +6.250000e+00 -1.044289e+00 +5.185693e+04 +2.844859e+06 +2.845332e+06 -1.552570e+00 +6.248962e+00 -1.139079e-01
+9.373193e+03 +6.250000e+00 -1.027805e+00 +4.873235e+04 +2.716331e+06 +2.716768e+06 -1.552858e+00 +6.248994e+00 -1.121101e-01
+9.816753e+03 +6.250000e+00 -1.011321e+00 +4.578426e+04 +2.593609e+06 +2.594014e+06 -1.553145e+00 +6.249026e+00 -1.103123e-01
+1.028130e+04 +6.250000e+00 -9.928984e-01 +4.291927e+04 +2.476434e+06 +2.476806e+06 -1.553467e+00 +6.249062e+00 -1.083030e-01
+1.076784e+04 +6.250000e+00 -9.744755e-01 +4.021971e+04 +2.364552e+06 +2.364894e+06 -1.553789e+00 +6.249096e+00 -1.062937e-01
+1.127740e+04 +6.250000e+00 -9.560526e-01 +3.767648e+04 +2.257724e+06 +2.258038e+06 -1.554110e+00 +6.249130e+00 -1.042843e-01
+1.181107e+04 +6.250000e+00 -9.376297e-01 +3.528095e+04 +2.155722e+06 +2.156011e+06 -1.554432e+00 +6.249163e+00 -1.022750e-01
+1.236999e+04 +6.250000e+00 -9.182371e-01 +3.299015e+04 +2.058329e+06 +2.058594e+06 -1.554770e+00 +6.249197e+00 -1.001598e-01
+1.295537e+04 +6.250000e+00 -8.998142e-01 +3.086759e+04 +1.965336e+06 +1.965578e+06 -1.555092e+00 +6.249229e+00 -9.815047e-02
+1.356845e+04 +6.250000e+00 -8.804216e-01 +2.883772e+04 +1.876544e+06 +1.876765e+06 -1.555430e+00 +6.249262e+00 -9.603532e-02
+1.421054e+04 +6.250000e+00 -8.600595e-01 +2.689795e+04 +1.791764e+06 +1.791966e+06 -1.555785e+00 +6.249296e+00 -9.381441e-02
+1.488301e+04 +6.250000e+00 -8.396973e-01 +2.507459e+04 +1.710814e+06 +1.710997e+06 -1.556141e+00 +6.249329e+00 -9.159349e-02
+1.558731e+04 +6.250000e+00 -8.193351e-01 +2.336109e+04 +1.633521e+06 +1.633688e+06 -1.556496e+00 +6.249361e+00 -8.937255e-02
+1.632493e+04 +6.250000e+00 -7.989729e-01 +2.175124e+04 +1.559719e+06 +1.559871e+06 -1.556852e+00 +6.249392e+00 -8.715160e-02
+1.709747e+04 +6.250000e+00 -7.786108e-01 +2.023917e+04 +1.489252e+06 +1.489390e+06 -1.557207e+00 +6.249423e+00 -8.493065e-02
+1.790656e+04 +6.250000e+00 -7.572790e-01 +1.879528e+04 +1.421969e+06 +1.422093e+06 -1.557579e+00 +6.249454e+00 -8.260392e-02
+1.875393e+04 +6.250000e+00 -7.359472e-01 +1.744054e+04 +1.357725e+06 +1.357837e+06 -1.557952e+00 +6.249484e+00 -8.027718e-02
+1.964141e+04 +6.250000e+00 -7.146154e-01 +1.616985e+04 +1.296384e+06 +1.296485e+06 -1.558324e+00 +6.249514e+00 -7.795042e-02
+2.057089e+04 +6.250000e+00 -6.932836e-01 +1.497838e+04 +1.237814e+06 +1.237904e+06 -1.558696e+00 +6.249542e+00 -7.562366e-02
+2.154435e+04 +6.250000e+00 -6.719518e-01 +1.386157e+04 +1.181890e+06 +1.181971e+06 -1.559069e+00 +6.249570e+00 -7.329689e-02
+2.256387e+04 +6.250000e+00 -6.506200e-01 +1.281510e+04 +1.128492e+06 +1.128565e+06 -1.559441e+00 +6.249597e+00 -7.097010e-02
+2.616198e+05 +6.250000e+00 -4.916011e-01 +8.351304e+02 +9.733151e+04 +9.733509e+04 -1.562216e+00 +6.249770e+00 -5.362470e-02
+2.869666e+05 +6.250000e+00 -3.335518e-01 +5.165912e+02 +8.873632e+04 +8.873783e+04 -1.564975e+00 +6.249894e+00 -3.638465e-02
+3.005465e+05 +6.250000e+00 -1.745329e-01 +2.580967e+02 +8.472790e+04 +8.472830e+04 -1.567750e+00 +6.249971e+00 -1.903856e-02
+3.147690e+05 +6.250000e+00 -8.726646e-03 +1.232176e+01 +8.089993e+04 +8.089993e+04 -1.570644e+00 +6.250000e+00 -9.519294e-04
+3.296646e+05 +6.250000e+00 +1.502922e-01 -2.026195e+02 +7.724428e+04 +7.724455e+04 -1.573419e+00 +6.249978e+00 +1.639432e-02
+3.452650e+05 +6.250000e+00 +3.122200e-01 -4.019050e+02 +7.375323e+04 +7.375433e+04 -1.576246e+00 +6.249907e+00 +3.405775e-02
+3.616038e+05 +6.250000e+00 +4.741478e-01 -5.827648e+02 +7.041940e+04 +7.042181e+04 -1.579072e+00 +6.249786e+00 +5.172091e-02
+3.787157e+05 +6.250000e+00 +6.360755e-01 -7.464557e+02 +6.723573e+04 +6.723987e+04 -1.581898e+00 +6.249615e+00 +6.938365e-02
+3.966373e+05 +6.250000e+00 +7.999426e-01 -8.963314e+02 +6.419544e+04 +6.420170e+04 -1.584758e+00 +6.249391e+00 +8.725736e-02
+4.154071e+05 +6.250000e+00 +8.280618e-01 -8.859133e+02 +6.129441e+04 +6.130081e+04 -1.585249e+00 +6.249347e+00 +9.032438e-02
+4.350651e+05 +6.250000e+00 +8.513328e-01 -8.696543e+02 +5.852453e+04 +5.853099e+04 -1.585655e+00 +6.249310e+00 +9.286259e-02
+4.556533e+05 +6.250000e+00 +8.843002e-01 -8.625125e+02 +5.587967e+04 +5.588633e+04 -1.586230e+00 +6.249256e+00 +9.645835e-02
+4.772158e+05 +6.250000e+00 +9.056320e-01 -8.434052e+02 +5.335449e+04 +5.336116e+04 -1.586603e+00 +6.249219e+00 +9.878501e-02
+4.997988e+05 +6.250000e+00 +9.318119e-01 -8.285742e+02 +5.094335e+04 +5.095009e+04 -1.587060e+00 +6.249173e+00 +1.016404e-01
+5.234504e+05 +6.250000e+00 +9.579918e-01 -8.133614e+02 +4.864116e+04 +4.864796e+04 -1.587516e+00 +6.249126e+00 +1.044958e-01
+5.482212e+05 +6.250000e+00 +9.880503e-01 -8.009754e+02 +4.644294e+04 +4.644985e+04 -1.588041e+00 +6.249071e+00 +1.077742e-01
+5.741642e+05 +6.250000e+00 +1.019078e+00 -7.887984e+02 +4.434404e+04 +4.435106e+04 -1.588583e+00 +6.249011e+00 +1.111583e-01
+6.013350e+05 +6.250000e+00 +1.043319e+00 -7.710706e+02 +4.234008e+04 +4.234710e+04 -1.589006e+00 +6.248964e+00 +1.138022e-01
+6.297915e+05 +6.250000e+00 +1.066590e+00 -7.526502e+02 +4.042668e+04 +4.043369e+04 -1.589412e+00 +6.248917e+00 +1.163402e-01
+6.595946e+05 +6.250000e+00 +1.095679e+00 -7.382394e+02 +3.859967e+04 +3.860673e+04 -1.589920e+00 +6.248857e+00 +1.195127e-01
+6.908081e+05 +6.250000e+00 +1.113132e+00 -7.161096e+02 +3.685537e+04 +3.686232e+04 -1.590224e+00 +6.248821e+00 +1.214162e-01
+7.234987e+05 +6.944444e+00 +1.136403e+00 -6.282409e+02 +3.167083e+04 +3.167706e+04 -1.590630e+00 +6.943079e+00 +1.377269e-01
+7.577363e+05 +7.638889e+00 +1.159674e+00 -5.564878e+02 +2.749052e+04 +2.749615e+04 -1.591036e+00 +7.637324e+00 +1.546016e-01
+7.935940e+05 +8.333333e+00 +1.180036e+00 -4.956157e+02 +2.406084e+04 +2.406595e+04 -1.591392e+00 +8.331566e+00 +1.716172e-01
+8.311487e+05 +9.027778e+00 +1.197490e+00 -4.432800e+02 +2.120634e+04 +2.121097e+04 -1.591696e+00 +9.025806e+00 +1.886681e-01
+8.704805e+05 +9.722222e+00 +1.213004e+00 -3.981096e+02 +1.880175e+04 +1.880596e+04 -1.591967e+00 +9.720044e+00 +2.058129e-01
+9.116736e+05 +1.041667e+01 +1.234336e+00 -3.610182e+02 +1.675526e+04 +1.675915e+04 -1.592340e+00 +1.041425e+01 +2.243912e-01
+9.548160e+05 +1.111111e+01 +1.252759e+00 -3.279843e+02 +1.499820e+04 +1.500179e+04 -1.592661e+00 +1.110846e+01 +2.429224e-01
