Freq Z_mod Z_Fase Err Eri E_mod E_fase R X
+1.000000e+01 +2.292072e+05 +8.833176e+01 -6.940771e+04 +2.021464e+03 +6.943714e+04 -3.112476e+00 +6.672713e+03 +2.291101e+05
+1.264855e+01 +2.535495e+05 +9.021292e+01 -4.962649e+04 -1.844223e+02 +4.962683e+04 +3.137876e+00 -9.422362e+02 +2.535478e+05
+1.599859e+01 +2.185717e+05 +8.066432e+01 -4.491111e+04 +7.383197e+03 +4.551395e+04 -2.978654e+00 +3.545635e+04 +2.156767e+05
+2.023590e+01 +1.706772e+05 +7.852673e+01 -4.516023e+04 +9.166011e+03 +4.608104e+04 -2.941346e+00 +3.394952e+04 +1.672666e+05
+2.559548e+01 +1.351388e+05 +7.539211e+01 -4.452521e+04 +1.160449e+04 +4.601260e+04 -2.886637e+00 +3.408236e+04 +1.307704e+05
+3.237458e+01 +1.093998e+05 +7.187517e+01 -4.270681e+04 +1.397922e+04 +4.493652e+04 -2.825255e+00 +3.403300e+04 +1.039715e+05
+4.094915e+01 +8.823170e+04 +6.751967e+01 -4.070311e+04 +1.684342e+04 +4.405047e+04 -2.749237e+00 +3.373683e+04 +8.152705e+04
+5.179475e+01 +7.181546e+04 +6.340237e+01 -3.825938e+04 +1.915689e+04 +4.278745e+04 -2.677377e+00 +3.215337e+04 +6.421543e+04
+6.551286e+01 +6.080474e+04 +5.684086e+01 -3.344736e+04 +2.185329e+04 +3.995362e+04 -2.562856e+00 +3.325815e+04 +5.090297e+04
+8.286428e+01 +5.206663e+04 +5.028212e+01 -2.837479e+04 +2.357217e+04 +3.688870e+04 -2.448385e+00 +3.327099e+04 +4.004966e+04
+1.048113e+02 +4.753883e+04 +4.344051e+01 -2.196343e+04 +2.319280e+04 +3.194210e+04 -2.328976e+00 +3.451740e+04 +3.268775e+04
+1.325711e+02 +4.290488e+04 +3.645437e+01 -1.662586e+04 +2.250603e+04 +2.798108e+04 -2.207045e+00 +3.450970e+04 +2.549332e+04
+1.676833e+02 +3.983302e+04 +3.058606e+01 -1.212444e+04 +2.051269e+04 +2.382798e+04 -2.104624e+00 +3.429088e+04 +2.026831e+04
+2.120951e+02 +3.742834e+04 +2.484579e+01 -8.424064e+03 +1.819315e+04 +2.004883e+04 -2.004437e+00 +3.396405e+04 +1.572654e+04
+2.682696e+02 +3.590776e+04 +2.012606e+01 -5.684973e+03 +1.551305e+04 +1.652192e+04 -1.922062e+00 +3.371515e+04 +1.235538e+04
+3.393222e+02 +3.479759e+04 +1.597180e+01 -3.708948e+03 +1.295870e+04 +1.347903e+04 -1.849557e+00 +3.345431e+04 +9.575054e+03
+4.291934e+02 +3.423011e+04 +1.256570e+01 -2.356870e+03 +1.057376e+04 +1.083325e+04 -1.790109e+00 +3.341020e+04 +7.447065e+03
+5.428675e+02 +3.365196e+04 +9.950839e+00 -1.505454e+03 +8.580900e+03 +8.711960e+03 -1.744471e+00 +3.314571e+04 +5.815165e+03
+6.866488e+02 +3.334926e+04 +7.783888e+00 -9.413183e+02 +6.886192e+03 +6.950232e+03 -1.706651e+00 +3.304197e+04 +4.516722e+03
+8.685114e+02 +3.310821e+04 +6.081867e+00 -5.864181e+02 +5.503737e+03 +5.534890e+03 -1.676945e+00 +3.292186e+04 +3.507794e+03
+1.098541e+03 +3.294013e+04 +4.934314e+00 -3.783081e+02 +4.381936e+03 +4.398236e+03 -1.656916e+00 +3.281805e+04 +2.833299e+03
+1.389495e+03 +3.280937e+04 +3.910798e+00 -2.381061e+02 +3.482993e+03 +3.491122e+03 -1.639053e+00 +3.273298e+04 +2.237708e+03
+1.757511e+03 +3.279025e+04 +3.229075e+00 -1.555618e+02 +2.757322e+03 +2.761706e+03 -1.627154e+00 +3.273819e+04 +1.847014e+03
+2.222996e+03 +3.282805e+04 +2.720345e+00 -1.035081e+02 +2.178445e+03 +2.180903e+03 -1.618275e+00 +3.279105e+04 +1.558056e+03
+2.811769e+03 +3.281436e+04 +1.983734e+00 -5.971050e+01 +1.723917e+03 +1.724950e+03 -1.605419e+00 +3.279470e+04 +1.135895e+03
+3.556480e+03 +3.273610e+04 +1.554193e+00 -3.707676e+01 +1.366510e+03 +1.367013e+03 -1.597922e+00 +3.272406e+04 +8.878835e+02
+4.498433e+03 +3.266427e+04 +1.168462e+00 -2.208756e+01 +1.082918e+03 +1.083143e+03 -1.591190e+00 +3.265748e+04 +6.660929e+02
+5.689866e+03 +3.261492e+04 +8.343608e-01 -1.248871e+01 +8.575426e+02 +8.576335e+02 -1.585359e+00 +3.261146e+04 +4.749329e+02
+7.196857e+03 +3.253875e+04 +5.481850e-01 -6.502408e+00 +6.796049e+02 +6.796360e+02 -1.580364e+00 +3.253726e+04 +3.113141e+02
+9.102982e+03 +3.243913e+04 +2.149543e-01 -2.022040e+00 +5.389696e+02 +5.389733e+02 -1.574548e+00 +3.243890e+04 +1.217003e+02
+1.151395e+04 +3.220189e+04 -2.585190e-03 +1.936797e-02 +4.292539e+02 +4.292539e+02 -1.570751e+00 +3.220189e+04 -1.452952e+00
+1.456348e+04 +3.199592e+04 -7.299473e-01 +4.351283e+00 +3.415269e+02 +3.415547e+02 -1.558056e+00 +3.199332e+04 -4.076165e+02
+1.842070e+04 +3.187847e+04 -1.549674e+00 +7.329619e+00 +2.709304e+02 +2.710295e+02 -1.543749e+00 +3.186681e+04 -8.621093e+02
+2.329952e+04 +3.170679e+04 -2.491999e+00 +9.367189e+00 +2.152336e+02 +2.154373e+02 -1.527303e+00 +3.167680e+04 -1.378607e+03
+2.947052e+04 +3.154511e+04 -3.604379e+00 +1.076271e+01 +1.708600e+02 +1.711987e+02 -1.507888e+00 +3.148271e+04 -1.983140e+03
+3.727594e+04 +3.151961e+04 -5.422082e+00 +1.279987e+01 +1.348538e+02 +1.354599e+02 -1.476163e+00 +3.137858e+04 -2.978351e+03
+4.714866e+04 +3.153126e+04 -7.283839e+00 +1.357303e+01 +1.061917e+02 +1.070556e+02 -1.443669e+00 +3.127681e+04 -3.997686e+03
+5.963623e+04 +3.174696e+04 -9.709470e+00 +1.417751e+01 +8.285940e+01 +8.406356e+01 -1.401334e+00 +3.129221e+04 -5.354198e+03
+7.543120e+04 +3.211000e+04 -1.247334e+01 +1.419231e+01 +6.415863e+01 +6.570960e+01 -1.353095e+00 +3.135210e+04 -6.935290e+03
+9.540955e+04 +3.279110e+04 -1.580560e+01 +1.385602e+01 +4.894787e+01 +5.087124e+01 -1.294937e+00 +3.155131e+04 -8.931451e+03
+1.206793e+05 +3.408180e+04 -1.913080e+01 +1.268164e+01 +3.655884e+01 +3.869590e+01 -1.236901e+00 +3.219956e+04 -1.116949e+04
+1.526418e+05 +3.625821e+04 -2.462190e+01 +1.198089e+01 +2.614213e+01 +2.875678e+01 -1.141063e+00 +3.296151e+04 -1.510620e+04
+1.930698e+05 +4.032430e+04 -2.574717e+01 +8.880340e+00 +1.841318e+01 +2.044274e+01 -1.121424e+00 +3.632089e+04 -1.751690e+04
+2.442053e+05 +4.187003e+04 -2.997162e+01 +7.776048e+00 +1.348393e+01 +1.556545e+01 -1.047693e+00 +3.627088e+04 -2.091705e+04
+3.088844e+05 +4.681147e+04 -3.705261e+01 +6.632292e+00 +8.784554e+00 +1.100707e+01 -9.241062e-01 +3.735942e+04 -2.820616e+04
+3.906940e+05 +5.324096e+04 -4.022814e+01 +4.941486e+00 +5.841638e+00 +7.651341e+00 -8.686829e-01 +4.064835e+04 -3.438475e+04
+4.941713e+05 +6.105952e+04 -4.522166e+01 +3.744104e+00 +3.715245e+00 +5.274596e+00 -7.815294e-01 +4.300825e+04 -4.334231e+04
+6.250552e+05 +6.948995e+04 -4.591623e+01 +2.632084e+00 +2.549222e+00 +3.664205e+00 -7.694070e-01 +4.834481e+04 -4.991626e+04
+7.906043e+05 +8.162375e+04 -5.090954e+01 +1.914216e+00 +1.555112e+00 +2.466291e+00 -6.822572e-01 +5.146757e+04 -6.335239e+04
+1.000000e+06 +1.006079e+05 -5.086820e+01 +1.227100e+00 +9.983684e-01 +1.581934e+00 -6.829787e-01 +6.349426e+04 -7.804114e+04
