Freq Z_mod Z_Fase Err Eri E_mod E_fase R X
+5.794984e+01 +6.250000e+02 -7.572790e-01 +5.807758e+04 +4.393898e+06 +4.394282e+06 -1.557579e+00 +6.249454e+02 -8.260392e+00
+6.069215e+01 +6.090278e+02 -7.640664e-01 +5.741774e+04 +4.305384e+06 +4.305767e+06 -1.557461e+00 +6.089736e+02 -8.121433e+00
+6.356424e+01 +5.944444e+02 -7.718234e-01 +5.673854e+04 +4.211692e+06 +4.212074e+06 -1.557325e+00 +5.943905e+02 -8.007435e+00
+6.657224e+01 +5.805556e+02 -7.776411e-01 +5.588901e+04 +4.117591e+06 +4.117970e+06 -1.557224e+00 +5.805021e+02 -7.879289e+00
+6.972259e+01 +5.666667e+02 -7.844285e-01 +5.514881e+04 +4.027896e+06 +4.028274e+06 -1.557105e+00 +5.666136e+02 -7.757912e+00
+7.302202e+01 +5.527778e+02 -7.921856e-01 +5.451377e+04 +3.942523e+06 +3.942900e+06 -1.556970e+00 +5.527249e+02 -7.642598e+00
+7.647758e+01 +5.395833e+02 -7.980033e-01 +5.371499e+04 +3.856429e+06 +3.856803e+06 -1.556869e+00 +5.395310e+02 -7.514958e+00
+8.009667e+01 +5.263889e+02 -8.038211e-01 +5.295677e+04 +3.774472e+06 +3.774844e+06 -1.556767e+00 +5.263371e+02 -7.384638e+00
+8.388702e+01 +5.131944e+02 -8.096388e-01 +5.223934e+04 +3.696579e+06 +3.696949e+06 -1.556665e+00 +5.131432e+02 -7.251639e+00
+8.785674e+01 +5.000000e+02 -8.144870e-01 +5.150174e+04 +3.622690e+06 +3.623056e+06 -1.556581e+00 +4.999495e+02 -7.107500e+00
+9.201432e+01 +4.875000e+02 -8.203047e-01 +5.079580e+04 +3.547689e+06 +3.548053e+06 -1.556479e+00 +4.874500e+02 -6.979308e+00
+9.636864e+01 +4.750000e+02 -8.241833e-01 +5.001231e+04 +3.476529e+06 +3.476889e+06 -1.556412e+00 +4.749509e+02 -6.832502e+00
+1.009290e+02 +4.631944e+02 -8.290314e-01 +4.925768e+04 +3.404045e+06 +3.404401e+06 -1.556327e+00 +4.631460e+02 -6.701878e+00
+1.057052e+02 +4.513889e+02 -8.329099e-01 +4.848786e+04 +3.335239e+06 +3.335592e+06 -1.556259e+00 +4.513412e+02 -6.561618e+00
+1.107074e+02 +4.395833e+02 -8.367884e-01 +4.776170e+04 +3.270061e+06 +3.270410e+06 -1.556192e+00 +4.395365e+02 -6.419760e+00
+1.159463e+02 +4.277778e+02 -8.406669e-01 +4.707937e+04 +3.208471e+06 +3.208817e+06 -1.556124e+00 +4.277317e+02 -6.276304e+00
+1.214332e+02 +4.166667e+02 -8.435758e-01 +4.631054e+04 +3.145190e+06 +3.145531e+06 -1.556073e+00 +4.166215e+02 -6.134435e+00
+1.271797e+02 +4.055556e+02 -8.464847e-01 +4.558614e+04 +3.085352e+06 +3.085689e+06 -1.556022e+00 +4.055113e+02 -5.991437e+00
+1.331981e+02 +3.944444e+02 -8.484239e-01 +4.485498e+04 +3.028926e+06 +3.029258e+06 -1.555989e+00 +3.944012e+02 -5.840638e+00
+1.395013e+02 +3.840278e+02 -8.503632e-01 +4.409050e+04 +2.970512e+06 +2.970839e+06 -1.555955e+00 +3.839855e+02 -5.699392e+00
+1.461028e+02 +3.736111e+02 -8.532721e-01 +4.342007e+04 +2.915369e+06 +2.915692e+06 -1.555904e+00 +3.735697e+02 -5.563763e+00
+1.530167e+02 +3.631944e+02 -8.542417e-01 +4.269569e+04 +2.863477e+06 +2.863795e+06 -1.555887e+00 +3.631541e+02 -5.414785e+00
+1.602578e+02 +3.527778e+02 -8.542417e-01 +4.197026e+04 +2.814825e+06 +2.815138e+06 -1.555887e+00 +3.527386e+02 -5.259486e+00
+1.678416e+02 +3.430556e+02 -8.542417e-01 +4.120957e+04 +2.763808e+06 +2.764115e+06 -1.555887e+00 +3.430174e+02 -5.114539e+00
+1.757842e+02 +3.340278e+02 -8.542417e-01 +4.041101e+04 +2.710250e+06 +2.710551e+06 -1.555887e+00 +3.339907e+02 -4.979946e+00
+1.841027e+02 +3.243056e+02 -8.532721e-01 +3.969670e+04 +2.665369e+06 +2.665665e+06 -1.555904e+00 +3.242696e+02 -4.829512e+00
+1.928149e+02 +3.152778e+02 -8.523025e-01 +3.894407e+04 +2.617810e+06 +2.618100e+06 -1.555921e+00 +3.152429e+02 -4.689737e+00
+2.019393e+02 +3.069444e+02 -8.523025e-01 +3.819395e+04 +2.567387e+06 +2.567672e+06 -1.555921e+00 +3.069105e+02 -4.565779e+00
+2.114955e+02 +2.979167e+02 -8.513328e-01 +3.753055e+04 +2.525668e+06 +2.525946e+06 -1.555938e+00 +2.978838e+02 -4.426450e+00
+2.215040e+02 +2.895833e+02 -8.484239e-01 +3.674003e+04 +2.480947e+06 +2.481219e+06 -1.555989e+00 +2.895516e+02 -4.287933e+00
+2.319860e+02 +2.812500e+02 -8.464847e-01 +3.603682e+04 +2.439037e+06 +2.439303e+06 -1.556022e+00 +2.812193e+02 -4.155021e+00
+2.429641e+02 +2.736111e+02 -8.445454e-01 +3.528815e+04 +2.393851e+06 +2.394111e+06 -1.556056e+00 +2.735814e+02 -4.032909e+00
+2.544617e+02 +2.659722e+02 -8.416366e-01 +3.454202e+04 +2.351335e+06 +2.351589e+06 -1.556107e+00 +2.659435e+02 -3.906813e+00
+2.665034e+02 +2.583333e+02 -8.377580e-01 +3.380005e+04 +2.311482e+06 +2.311729e+06 -1.556175e+00 +2.583057e+02 -3.777121e+00
+2.791150e+02 +2.513889e+02 -8.338795e-01 +3.301082e+04 +2.268010e+06 +2.268250e+06 -1.556242e+00 +2.513623e+02 -3.658570e+00
+2.923233e+02 +2.444444e+02 -8.290314e-01 +3.222624e+04 +2.227056e+06 +2.227289e+06 -1.556327e+00 +2.444189e+02 -3.536823e+00
+3.061567e+02 +2.375000e+02 -8.241833e-01 +3.148465e+04 +2.188607e+06 +2.188834e+06 -1.556412e+00 +2.374754e+02 -3.416251e+00
+3.206447e+02 +2.312500e+02 -8.183655e-01 +3.065662e+04 +2.146199e+06 +2.146418e+06 -1.556513e+00 +2.312264e+02 -3.302871e+00
+3.358183e+02 +2.250000e+02 -8.125477e-01 +2.987066e+04 +2.106151e+06 +2.106363e+06 -1.556615e+00 +2.249774e+02 -3.190761e+00
+3.517100e+02 +2.187500e+02 -8.057603e-01 +2.909084e+04 +2.068447e+06 +2.068651e+06 -1.556733e+00 +2.187284e+02 -3.076217e+00
+3.683537e+02 +2.131944e+02 -7.999426e-01 +2.829445e+04 +2.026455e+06 +2.026652e+06 -1.556835e+00 +2.131737e+02 -2.976446e+00
+3.857850e+02 +2.076389e+02 -7.921856e-01 +2.746986e+04 +1.986665e+06 +1.986854e+06 -1.556970e+00 +2.076190e+02 -2.870775e+00
+4.040412e+02 +2.020833e+02 -7.844285e-01 +2.668585e+04 +1.949051e+06 +1.949234e+06 -1.557105e+00 +2.020644e+02 -2.766608e+00
+4.231614e+02 +1.965278e+02 -7.766715e-01 +2.594129e+04 +1.913596e+06 +1.913772e+06 -1.557241e+00 +1.965097e+02 -2.663946e+00
+4.431863e+02 +1.916667e+02 -7.689145e-01 +2.514372e+04 +1.873476e+06 +1.873645e+06 -1.557376e+00 +1.916494e+02 -2.572107e+00
+4.641589e+02 +1.868056e+02 -7.601879e-01 +2.435282e+04 +1.835378e+06 +1.835539e+06 -1.557529e+00 +1.867891e+02 -2.478422e+00
+4.861239e+02 +1.819444e+02 -7.514612e-01 +2.359966e+04 +1.799273e+06 +1.799427e+06 -1.557681e+00 +1.819288e+02 -2.386219e+00
+5.091284e+02 +1.777778e+02 -7.417649e-01 +2.276391e+04 +1.758243e+06 +1.758391e+06 -1.557850e+00 +1.777629e+02 -2.301490e+00
+5.332215e+02 +1.736111e+02 -7.320687e-01 +2.196607e+04 +1.719094e+06 +1.719234e+06 -1.558019e+00 +1.735969e+02 -2.218170e+00
+5.584547e+02 +1.694444e+02 -7.214028e-01 +2.117622e+04 +1.681785e+06 +1.681918e+06 -1.558205e+00 +1.694310e+02 -2.133394e+00
+5.848820e+02 +1.652778e+02 -7.107369e-01 +2.042267e+04 +1.646281e+06 +1.646408e+06 -1.558392e+00 +1.652651e+02 -2.050168e+00
+6.125599e+02 +1.618056e+02 -7.010406e-01 +1.964662e+04 +1.605630e+06 +1.605751e+06 -1.558561e+00 +1.617934e+02 -1.979717e+00
+6.415476e+02 +1.583333e+02 -6.903747e-01 +1.887863e+04 +1.566705e+06 +1.566819e+06 -1.558747e+00 +1.583218e+02 -1.907761e+00
+6.719071e+02 +1.548611e+02 -6.797088e-01 +1.814507e+04 +1.529459e+06 +1.529567e+06 -1.558933e+00 +1.548502e+02 -1.837098e+00
+7.037033e+02 +1.513889e+02 -6.690429e-01 +1.744448e+04 +1.493850e+06 +1.493952e+06 -1.559119e+00 +1.513786e+02 -1.767728e+00
+7.370041e+02 +1.486111e+02 -6.574074e-01 +1.667252e+04 +1.453016e+06 +1.453112e+06 -1.559322e+00 +1.486013e+02 -1.705115e+00
+7.718807e+02 +1.458333e+02 -6.467415e-01 +1.595923e+04 +1.413792e+06 +1.413882e+06 -1.559509e+00 +1.458240e+02 -1.646098e+00
+8.084079e+02 +1.430556e+02 -6.360755e-01 +1.527784e+04 +1.376126e+06 +1.376211e+06 -1.559695e+00 +1.430467e+02 -1.588115e+00
+8.466635e+02 +1.402778e+02 -6.244400e-01 +1.460427e+04 +1.339969e+06 +1.340048e+06 -1.559898e+00 +1.402694e+02 -1.528792e+00
+8.867295e+02 +1.375000e+02 -6.137741e-01 +1.398311e+04 +1.305273e+06 +1.305348e+06 -1.560084e+00 +1.374921e+02 -1.472924e+00
+9.286915e+02 +1.347222e+02 -6.021386e-01 +1.336827e+04 +1.271995e+06 +1.272065e+06 -1.560287e+00 +1.347148e+02 -1.415810e+00
+9.726393e+02 +1.326389e+02 -5.905031e-01 +1.271421e+04 +1.233600e+06 +1.233666e+06 -1.560490e+00 +1.326318e+02 -1.366982e+00
+1.018667e+03 +1.305556e+02 -5.788675e-01 +1.209043e+04 +1.196659e+06 +1.196720e+06 -1.560693e+00 +1.305489e+02 -1.318999e+00
+1.066872e+03 +1.284722e+02 -5.662624e-01 +1.147589e+04 +1.161120e+06 +1.161177e+06 -1.560913e+00 +1.284659e+02 -1.269689e+00
+1.117359e+03 +1.263889e+02 -5.546269e-01 +1.090913e+04 +1.126933e+06 +1.126986e+06 -1.561116e+00 +1.263830e+02 -1.223434e+00
+1.170235e+03 +1.243056e+02 -5.429913e-01 +1.036860e+04 +1.094050e+06 +1.094099e+06 -1.561319e+00 +1.243000e+02 -1.178024e+00
+1.225613e+03 +1.222222e+02 -5.313558e-01 +9.853105e+03 +1.062424e+06 +1.062470e+06 -1.561522e+00 +1.222170e+02 -1.133461e+00
+1.283612e+03 +1.201389e+02 -5.197203e-01 +9.361466e+03 +1.032012e+06 +1.032055e+06 -1.561725e+00 +1.201339e+02 -1.089744e+00
+1.344355e+03 +1.187500e+02 -5.080847e-01 +8.840570e+03 +9.969087e+05 +9.969479e+05 -1.561929e+00 +1.187453e+02 -1.053032e+00
+1.407973e+03 +1.173611e+02 -4.954796e-01 +8.329123e+03 +9.631309e+05 +9.631669e+05 -1.562149e+00 +1.173567e+02 -1.014897e+00
+1.474602e+03 +1.159722e+02 -4.838441e-01 +7.859032e+03 +9.306277e+05 +9.306609e+05 -1.562352e+00 +1.159681e+02 -9.793357e-01
+1.544383e+03 +1.138889e+02 -4.731782e-01 +7.472757e+03 +9.048341e+05 +9.048649e+05 -1.562538e+00 +1.138850e+02 -9.405426e-01
+1.617467e+03 +1.125000e+02 -4.625123e-01 +7.060381e+03 +8.746174e+05 +8.746459e+05 -1.562724e+00 +1.124963e+02 -9.081308e-01
+1.694009e+03 +1.111111e+02 -4.518464e-01 +6.668231e+03 +8.455387e+05 +8.455650e+05 -1.562910e+00 +1.111077e+02 -8.762361e-01
+1.774173e+03 +1.097222e+02 -4.402108e-01 +6.281500e+03 +8.175545e+05 +8.175787e+05 -1.563113e+00 +1.097190e+02 -8.430016e-01
+1.858131e+03 +1.090278e+02 -4.295449e-01 +5.889637e+03 +7.855873e+05 +7.856094e+05 -1.563299e+00 +1.090247e+02 -8.173707e-01
+1.946062e+03 +1.083333e+02 -4.188790e-01 +5.519040e+03 +7.549006e+05 +7.549208e+05 -1.563486e+00 +1.083304e+02 -7.919982e-01
+2.038154e+03 +1.069444e+02 -4.082131e-01 +5.202183e+03 +7.301531e+05 +7.301716e+05 -1.563672e+00 +1.069417e+02 -7.619367e-01
+2.134604e+03 +1.055556e+02 -3.985168e-01 +4.912950e+03 +7.063359e+05 +7.063530e+05 -1.563841e+00 +1.055530e+02 -7.341785e-01
+2.235618e+03 +1.041667e+02 -3.888206e-01 +4.637854e+03 +6.834138e+05 +6.834296e+05 -1.564010e+00 +1.041643e+02 -7.068903e-01
+2.341412e+03 +1.034722e+02 -3.791243e-01 +4.346846e+03 +6.569146e+05 +6.569290e+05 -1.564179e+00 +1.034700e+02 -6.846673e-01
+2.452213e+03 +1.027778e+02 -3.694280e-01 +4.071617e+03 +6.314713e+05 +6.314845e+05 -1.564349e+00 +1.027756e+02 -6.626793e-01
+2.568257e+03 +1.020833e+02 -3.597318e-01 +3.811360e+03 +6.070412e+05 +6.070532e+05 -1.564518e+00 +1.020813e+02 -6.409264e-01
+2.689793e+03 +1.013889e+02 -3.510051e-01 +3.575189e+03 +5.835831e+05 +5.835941e+05 -1.564670e+00 +1.013870e+02 -6.211242e-01
+2.817080e+03 +1.000000e+02 -3.413088e-01 +3.365451e+03 +5.649542e+05 +5.649642e+05 -1.564839e+00 +9.999823e+01 -5.956928e-01
+2.950391e+03 +9.861111e+01 -3.335518e-01 +3.184586e+03 +5.470253e+05 +5.470346e+05 -1.564975e+00 +9.860944e+01 -5.740690e-01
+3.090010e+03 +9.791667e+01 -3.248252e-01 +2.982142e+03 +5.260133e+05 +5.260217e+05 -1.565127e+00 +9.791509e+01 -5.551129e-01
+3.236236e+03 +9.722222e+01 -3.170681e-01 +2.799253e+03 +5.058337e+05 +5.058415e+05 -1.565262e+00 +9.722073e+01 -5.380137e-01
+3.389382e+03 +9.652778e+01 -3.093111e-01 +2.626142e+03 +4.864531e+05 +4.864602e+05 -1.565398e+00 +9.652637e+01 -5.211024e-01
+3.549775e+03 +9.583333e+01 -3.005845e-01 +2.454396e+03 +4.678394e+05 +4.678458e+05 -1.565550e+00 +9.583201e+01 -5.027575e-01
+3.717758e+03 +9.513889e+01 -2.928275e-01 +2.299684e+03 +4.499614e+05 +4.499673e+05 -1.565686e+00 +9.513765e+01 -4.862340e-01
+3.893691e+03 +9.444444e+01 -2.860401e-01 +2.160651e+03 +4.327896e+05 +4.327950e+05 -1.565804e+00 +9.444327e+01 -4.714969e-01
+4.077949e+03 +9.375000e+01 -2.792527e-01 +2.028991e+03 +4.162957e+05 +4.163006e+05 -1.565922e+00 +9.374889e+01 -4.569243e-01
+4.270926e+03 +9.375000e+01 -2.724653e-01 +1.890226e+03 +3.974860e+05 +3.974905e+05 -1.566041e+00 +9.374894e+01 -4.458186e-01
+4.473036e+03 +9.375000e+01 -2.656779e-01 +1.759858e+03 +3.795262e+05 +3.795303e+05 -1.566159e+00 +9.374899e+01 -4.347129e-01
+4.684710e+03 +9.305556e+01 -2.588905e-01 +1.649632e+03 +3.650822e+05 +3.650859e+05 -1.566278e+00 +9.305461e+01 -4.204693e-01
+4.906401e+03 +9.236111e+01 -2.521031e-01 +1.545333e+03 +3.512075e+05 +3.512109e+05 -1.566396e+00 +9.236022e+01 -4.063903e-01
+5.138583e+03 +9.166667e+01 -2.462854e-01 +1.452379e+03 +3.378791e+05 +3.378822e+05 -1.566498e+00 +9.166582e+01 -3.940271e-01
+5.381752e+03 +9.097222e+01 -2.404676e-01 +1.364333e+03 +3.250752e+05 +3.250780e+05 -1.566599e+00 +9.097142e+01 -3.818048e-01
+5.636429e+03 +9.027778e+01 -2.346498e-01 +1.280948e+03 +3.127747e+05 +3.127773e+05 -1.566701e+00 +9.027702e+01 -3.697237e-01
+5.903157e+03 +8.958333e+01 -2.278624e-01 +1.196899e+03 +3.009575e+05 +3.009599e+05 -1.566819e+00 +8.958262e+01 -3.562675e-01
+6.182508e+03 +8.888889e+01 -2.220447e-01 +1.122340e+03 +2.896041e+05 +2.896063e+05 -1.566921e+00 +8.888822e+01 -3.444801e-01
+6.475078e+03 +8.819444e+01 -2.162269e-01 +1.051768e+03 +2.786961e+05 +2.786980e+05 -1.567022e+00 +8.819382e+01 -3.328337e-01
+6.781493e+03 +8.750000e+01 -2.104091e-01 +9.849808e+02 +2.682155e+05 +2.682173e+05 -1.567124e+00 +8.749941e+01 -3.213283e-01
+7.102408e+03 +8.750000e+01 -2.055610e-01 +9.188056e+02 +2.560965e+05 +2.560982e+05 -1.567209e+00 +8.749944e+01 -3.139245e-01
+7.438510e+03 +8.750000e+01 -2.007129e-01 +8.565995e+02 +2.445251e+05 +2.445266e+05 -1.567293e+00 +8.749946e+01 -3.065207e-01
+7.790517e+03 +8.750000e+01 -1.948951e-01 +7.941879e+02 +2.334766e+05 +2.334779e+05 -1.567395e+00 +8.749949e+01 -2.976360e-01
+8.159181e+03 +8.750000e+01 -1.900470e-01 +7.394401e+02 +2.229272e+05 +2.229284e+05 -1.567479e+00 +8.749952e+01 -2.902322e-01
+8.545292e+03 +8.750000e+01 -1.851988e-01 +6.880183e+02 +2.128545e+05 +2.128556e+05 -1.567564e+00 +8.749954e+01 -2.828283e-01
+8.949674e+03 +8.750000e+01 -1.813203e-01 +6.431732e+02 +2.032370e+05 +2.032380e+05 -1.567632e+00 +8.749956e+01 -2.769052e-01
+9.373193e+03 +8.750000e+01 -1.764722e-01 +5.976920e+02 +1.940539e+05 +1.940549e+05 -1.567716e+00 +8.749958e+01 -2.695014e-01
+9.816753e+03 +8.680556e+01 -1.725937e-01 +5.626085e+02 +1.867681e+05 +1.867690e+05 -1.567784e+00 +8.680516e+01 -2.614864e-01
+1.028130e+04 +8.611111e+01 -1.677455e-01 +5.263086e+02 +1.797674e+05 +1.797681e+05 -1.567869e+00 +8.611074e+01 -2.521082e-01
+1.076784e+04 +8.541667e+01 -1.628974e-01 +4.919715e+02 +1.730403e+05 +1.730410e+05 -1.567953e+00 +8.541632e+01 -2.428474e-01
+1.127740e+04 +8.472222e+01 -1.580493e-01 +4.594976e+02 +1.665760e+05 +1.665766e+05 -1.568038e+00 +8.472190e+01 -2.337043e-01
+1.181107e+04 +8.402778e+01 -1.541708e-01 +4.315061e+02 +1.603639e+05 +1.603644e+05 -1.568106e+00 +8.402747e+01 -2.261006e-01
+1.236999e+04 +8.333333e+01 -1.502922e-01 +4.049910e+02 +1.543940e+05 +1.543945e+05 -1.568173e+00 +8.333305e+01 -2.185910e-01
+1.295537e+04 +8.263889e+01 -1.473834e-01 +3.823941e+02 +1.486567e+05 +1.486572e+05 -1.568224e+00 +8.263862e+01 -2.125738e-01
+1.356845e+04 +8.194444e+01 -1.435048e-01 +3.585205e+02 +1.431427e+05 +1.431431e+05 -1.568292e+00 +8.194419e+01 -2.052405e-01
+1.421054e+04 +8.125000e+01 -1.405960e-01 +3.382487e+02 +1.378431e+05 +1.378435e+05 -1.568342e+00 +8.124976e+01 -1.993761e-01
+1.488301e+04 +8.125000e+01 -1.367175e-01 +3.140559e+02 +1.316148e+05 +1.316152e+05 -1.568410e+00 +8.124977e+01 -1.938761e-01
+1.558731e+04 +8.125000e+01 -1.328389e-01 +2.913588e+02 +1.256679e+05 +1.256683e+05 -1.568478e+00 +8.124978e+01 -1.883761e-01
+1.632493e+04 +8.125000e+01 -1.299301e-01 +2.721022e+02 +1.199898e+05 +1.199901e+05 -1.568529e+00 +8.124979e+01 -1.842511e-01
+1.709747e+04 +8.125000e+01 -1.270212e-01 +2.539909e+02 +1.145682e+05 +1.145684e+05 -1.568579e+00 +8.124980e+01 -1.801261e-01
+1.790656e+04 +8.125000e+01 -1.241123e-01 +2.369608e+02 +1.093915e+05 +1.093918e+05 -1.568630e+00 +8.124981e+01 -1.760010e-01
+1.875393e+04 +8.125000e+01 -1.212034e-01 +2.209512e+02 +1.044488e+05 +1.044490e+05 -1.568681e+00 +8.124982e+01 -1.718760e-01
+1.964141e+04 +8.125000e+01 -1.182945e-01 +2.059045e+02 +9.972939e+04 +9.972960e+04 -1.568732e+00 +8.124983e+01 -1.677510e-01
+2.057089e+04 +8.125000e+01 -1.153857e-01 +1.917665e+02 +9.522322e+04 +9.522341e+04 -1.568782e+00 +8.124984e+01 -1.636260e-01
+2.154435e+04 +8.125000e+01 -1.124768e-01 +1.784857e+02 +9.092066e+04 +9.092084e+04 -1.568833e+00 +8.124984e+01 -1.595010e-01
+2.256387e+04 +8.125000e+01 -1.105375e-01 +1.674827e+02 +8.681251e+04 +8.681267e+04 -1.568867e+00 +8.124985e+01 -1.567510e-01
+2.363165e+04 +8.125000e+01 -1.085983e-01 +1.571096e+02 +8.288997e+04 +8.289012e+04 -1.568901e+00 +8.124985e+01 -1.540009e-01
+2.474995e+04 +8.125000e+01 -1.066590e-01 +1.473320e+02 +7.914468e+04 +7.914481e+04 -1.568935e+00 +8.124986e+01 -1.512509e-01
+2.592117e+04 +8.125000e+01 -1.047198e-01 +1.381172e+02 +7.556861e+04 +7.556873e+04 -1.568969e+00 +8.124986e+01 -1.485009e-01
+2.714782e+04 +8.125000e+01 -1.027805e-01 +1.294344e+02 +7.215412e+04 +7.215423e+04 -1.569002e+00 +8.124987e+01 -1.457509e-01
+2.843251e+04 +8.125000e+01 -9.987162e-02 +1.200883e+02 +6.889391e+04 +6.889402e+04 -1.569053e+00 +8.124988e+01 -1.416259e-01
+2.977800e+04 +8.125000e+01 -9.696274e-02 +1.113226e+02 +6.578101e+04 +6.578111e+04 -1.569104e+00 +8.124988e+01 -1.375009e-01
+3.118717e+04 +8.125000e+01 -9.502348e-02 +1.041667e+02 +6.280877e+04 +6.280885e+04 -1.569138e+00 +8.124989e+01 -1.347508e-01
+3.266301e+04 +8.125000e+01 -9.211460e-02 +9.641535e+01 +5.997082e+04 +5.997090e+04 -1.569189e+00 +8.124989e+01 -1.306258e-01
+3.420870e+04 +8.125000e+01 -8.920572e-02 +8.915180e+01 +5.726110e+04 +5.726117e+04 -1.569239e+00 +8.124990e+01 -1.265008e-01
+3.582753e+04 +8.125000e+01 -8.726646e-02 +8.327305e+01 +5.467382e+04 +5.467388e+04 -1.569273e+00 +8.124991e+01 -1.237508e-01
+3.752297e+04 +8.125000e+01 -8.435758e-02 +7.686009e+01 +5.220344e+04 +5.220349e+04 -1.569324e+00 +8.124991e+01 -1.196258e-01
+3.929864e+04 +8.125000e+01 -8.144870e-02 +7.085665e+01 +4.984468e+04 +4.984473e+04 -1.569375e+00 +8.124992e+01 -1.155007e-01
+4.115834e+04 +8.125000e+01 -7.853982e-02 +6.523881e+01 +4.759250e+04 +4.759255e+04 -1.569426e+00 +8.124992e+01 -1.113757e-01
+4.310604e+04 +8.055556e+01 -7.563093e-02 +6.050109e+01 +4.583383e+04 +4.583387e+04 -1.569476e+00 +8.055549e+01 -1.063340e-01
+4.514592e+04 +7.986111e+01 -7.369168e-02 +5.677564e+01 +4.414342e+04 +4.414345e+04 -1.569510e+00 +7.986105e+01 -1.027143e-01
+4.728232e+04 +7.916667e+01 -7.175242e-02 +5.324671e+01 +4.251857e+04 +4.251860e+04 -1.569544e+00 +7.916660e+01 -9.914166e-02
+4.951983e+04 +7.847222e+01 -6.981317e-02 +4.990450e+01 +4.095668e+04 +4.095671e+04 -1.569578e+00 +7.847216e+01 -9.561600e-02
+5.186322e+04 +7.777778e+01 -6.787392e-02 +4.673964e+01 +3.945526e+04 +3.945528e+04 -1.569612e+00 +7.777772e+01 -9.213735e-02
+5.431750e+04 +7.708333e+01 -6.593466e-02 +4.374324e+01 +3.801190e+04 +3.801193e+04 -1.569646e+00 +7.708328e+01 -8.870570e-02
+5.688792e+04 +7.638889e+01 -6.399541e-02 +4.090684e+01 +3.662432e+04 +3.662434e+04 -1.569679e+00 +7.638884e+01 -8.532107e-02
+5.957999e+04 +7.569444e+01 -6.302578e-02 +3.881961e+01 +3.529031e+04 +3.529033e+04 -1.569696e+00 +7.569440e+01 -8.326443e-02
+6.239944e+04 +7.500000e+01 -6.205615e-02 +3.683327e+01 +3.400775e+04 +3.400777e+04 -1.569713e+00 +7.499996e+01 -8.123130e-02
+6.535233e+04 +7.500000e+01 -6.108652e-02 +3.461948e+01 +3.247114e+04 +3.247116e+04 -1.569730e+00 +7.499996e+01 -7.996206e-02
+6.844494e+04 +7.500000e+01 -5.914727e-02 +3.200586e+01 +3.100397e+04 +3.100398e+04 -1.569764e+00 +7.499996e+01 -7.742358e-02
+7.168391e+04 +7.500000e+01 -5.720801e-02 +2.955775e+01 +2.960308e+04 +2.960310e+04 -1.569798e+00 +7.499996e+01 -7.488510e-02
+7.507615e+04 +7.500000e+01 -5.526876e-02 +2.726553e+01 +2.826550e+04 +2.826551e+04 -1.569832e+00 +7.499997e+01 -7.234663e-02
+7.862892e+04 +7.500000e+01 -5.332950e-02 +2.512010e+01 +2.698835e+04 +2.698836e+04 -1.569866e+00 +7.499997e+01 -6.980815e-02
+8.234982e+04 +7.500000e+01 -5.235988e-02 +2.354898e+01 +2.576891e+04 +2.576892e+04 -1.569882e+00 +7.499997e+01 -6.853891e-02
